wavelength,intensity
380.0,50.614
380.5,50.8134
381.0,51.0128
381.5,51.212199999999996
382.0,51.4116
382.5,51.611000000000004
383.0,51.8104
383.5,52.0098
384.0,52.2092
384.5,52.40860000000001
385.0,52.608000000000004
385.5,52.8074
386.0,53.006800000000005
386.5,53.2062
387.0,53.4056
387.5,53.605000000000004
388.0,53.8044
388.5,54.0038
389.0,54.203199999999995
389.5,54.4026
390.0,54.602
390.5,56.006699999999995
391.0,57.4114
391.5,58.8161
392.0,60.2208
392.5,61.6255
393.0,63.0302
393.5,64.4349
394.0,65.8396
394.5,67.2443
395.0,68.649
395.5,70.0537
396.0,71.4584
396.5,72.8631
397.0,74.2678
397.5,75.6725
398.0,77.0772
398.5,78.4819
399.0,79.8866
399.5,81.29129999999999
400.0,82.696
400.5,83.1324
401.0,83.5688
401.5,84.0052
402.0,84.4416
402.5,84.878
403.0,85.3144
403.5,85.7508
404.0,86.1872
404.5,86.6236
405.0,87.06
405.5,87.4964
406.0,87.9328
406.5,88.3692
407.0,88.8056
407.5,89.24199999999999
408.0,89.6784
408.5,90.1148
409.0,90.5512
409.5,90.98759999999999
410.0,91.42399999999999
410.5,91.5214
411.0,91.6188
411.5,91.71619999999999
412.0,91.8136
412.5,91.911
413.0,92.0084
413.5,92.10579999999999
414.0,92.2032
414.5,92.3006
415.0,92.398
415.5,92.49549999999999
416.0,92.59299999999999
416.5,92.6905
417.0,92.788
417.5,92.8855
418.0,92.98299999999999
418.5,93.08049999999999
419.0,93.178
419.5,93.2755
420.0,93.37299999999999
420.5,93.0359
421.0,92.69879999999999
421.5,92.3617
422.0,92.02459999999999
422.5,91.6875
423.0,91.35040000000001
423.5,91.0133
424.0,90.67620000000001
424.5,90.3391
425.0,90.00200000000001
425.5,89.665
426.0,89.328
426.5,88.99100000000001
427.0,88.65400000000001
427.5,88.31700000000001
428.0,87.98
428.5,87.643
429.0,87.30600000000001
429.5,86.96900000000001
430.0,86.632
430.5,87.5411
431.0,88.45020000000001
431.5,89.3593
432.0,90.2684
432.5,91.17750000000001
433.0,92.0866
433.5,92.9957
434.0,93.9048
434.5,94.8139
435.0,95.723
435.5,96.6321
436.0,97.5412
436.5,98.4503
437.0,99.3594
437.5,100.26849999999999
438.0,101.1776
438.5,102.0867
439.0,102.99579999999999
439.5,103.9049
440.0,104.814
440.5,105.4212
441.0,106.02839999999999
441.5,106.6356
442.0,107.2428
442.5,107.85
443.0,108.4572
443.5,109.0644
444.0,109.67160000000001
444.5,110.2788
445.0,110.88600000000001
445.5,111.4932
446.0,112.10040000000001
446.5,112.70760000000001
447.0,113.3148
447.5,113.922
448.0,114.5292
448.5,115.13640000000001
449.0,115.7436
449.5,116.35079999999999
450.0,116.958
450.5,116.9984
451.0,117.0388
451.5,117.0792
452.0,117.1196
452.5,117.16
453.0,117.2004
453.5,117.24080000000001
454.0,117.28120000000001
454.5,117.3216
455.0,117.36200000000001
455.5,117.4025
456.0,117.44300000000001
456.5,117.4835
457.0,117.52400000000002
457.5,117.56450000000001
458.0,117.605
458.5,117.64550000000001
459.0,117.686
459.5,117.72650000000002
460.0,117.76700000000001
460.5,117.61970000000001
461.0,117.47240000000001
461.5,117.3251
462.0,117.1778
462.5,117.0305
463.0,116.8832
463.5,116.7359
464.0,116.5886
464.5,116.4413
465.0,116.294
465.5,116.1468
466.0,115.9996
466.5,115.8524
467.0,115.7052
467.5,115.55799999999999
468.0,115.4108
468.5,115.2636
469.0,115.1164
469.5,114.9692
470.0,114.822
470.5,114.87530000000001
471.0,114.9286
471.5,114.9819
472.0,115.0352
472.5,115.08850000000001
473.0,115.1418
473.5,115.1951
474.0,115.2484
474.5,115.30170000000001
475.0,115.355
475.5,115.4084
476.0,115.4618
476.5,115.51520000000001
477.0,115.5686
477.5,115.622
478.0,115.6754
478.5,115.72879999999999
479.0,115.7822
479.5,115.8356
480.0,115.889
480.5,115.5337
481.0,115.1784
481.5,114.8231
482.0,114.4678
482.5,114.1125
483.0,113.7572
483.5,113.4019
484.0,113.0466
484.5,112.6913
485.0,112.336
485.5,111.9807
486.0,111.6254
486.5,111.2701
487.0,110.9148
487.5,110.55949999999999
488.0,110.20419999999999
488.5,109.84889999999999
489.0,109.49359999999999
489.5,109.13829999999999
490.0,108.78299999999999
490.5,108.81039999999999
491.0,108.83779999999999
491.5,108.86519999999999
492.0,108.89259999999999
492.5,108.91999999999999
493.0,108.9474
493.5,108.9748
494.0,109.0022
494.5,109.0296
495.0,109.057
495.5,109.0845
496.0,109.11200000000001
496.5,109.1395
497.0,109.167
497.5,109.1945
498.0,109.22200000000001
498.5,109.24950000000001
499.0,109.277
499.5,109.3045
500.0,109.33200000000001
500.5,109.25450000000001
501.0,109.177
501.5,109.0995
502.0,109.022
502.5,108.9445
503.0,108.867
503.5,108.7895
504.0,108.712
504.5,108.6345
505.0,108.557
505.5,108.4796
506.0,108.4022
506.5,108.3248
507.0,108.2474
507.5,108.16999999999999
508.0,108.09259999999999
508.5,108.0152
509.0,107.9378
509.5,107.86039999999998
510.0,107.78299999999999
510.5,107.63269999999999
511.0,107.48239999999998
511.5,107.3321
512.0,107.1818
512.5,107.0315
513.0,106.88119999999999
513.5,106.73089999999999
514.0,106.5806
514.5,106.4303
515.0,106.28
515.5,106.1297
516.0,105.9794
516.5,105.8291
517.0,105.6788
517.5,105.52850000000001
518.0,105.3782
518.5,105.2279
519.0,105.0776
519.5,104.9273
520.0,104.777
520.5,104.9222
521.0,105.0674
521.5,105.2126
522.0,105.3578
522.5,105.503
523.0,105.6482
523.5,105.7934
524.0,105.9386
524.5,106.0838
525.0,106.229
525.5,106.3742
526.0,106.5194
526.5,106.6646
527.0,106.8098
527.5,106.955
528.0,107.1002
528.5,107.2454
529.0,107.39059999999999
529.5,107.5358
530.0,107.681
530.5,107.51689999999999
531.0,107.3528
531.5,107.1887
532.0,107.0246
532.5,106.8605
533.0,106.6964
533.5,106.5323
534.0,106.3682
534.5,106.20410000000001
535.0,106.04
535.5,105.876
536.0,105.712
536.5,105.548
537.0,105.384
537.5,105.22
538.0,105.05600000000001
538.5,104.89200000000001
539.0,104.72800000000001
539.5,104.56400000000001
540.0,104.4
540.5,104.38210000000001
541.0,104.36420000000001
541.5,104.3463
542.0,104.3284
542.5,104.3105
543.0,104.29260000000001
543.5,104.27470000000001
544.0,104.2568
544.5,104.2389
545.0,104.221
545.5,104.20320000000001
546.0,104.1854
546.5,104.1676
547.0,104.1498
547.5,104.132
548.0,104.1142
548.5,104.09639999999999
549.0,104.0786
549.5,104.0608
550.0,104.04299999999999
550.5,103.84089999999999
551.0,103.63879999999999
551.5,103.4367
552.0,103.2346
552.5,103.0325
553.0,102.8304
553.5,102.6283
554.0,102.42620000000001
554.5,102.2241
555.0,102.022
555.5,101.8198
556.0,101.61760000000001
556.5,101.4154
557.0,101.2132
557.5,101.011
558.0,100.8088
558.5,100.6066
559.0,100.4044
559.5,100.2022
560.0,100.0
560.5,99.8168
561.0,99.6336
561.5,99.4504
562.0,99.2672
562.5,99.084
563.0,98.90079999999999
563.5,98.71759999999999
564.0,98.53439999999999
564.5,98.35119999999999
565.0,98.16799999999999
565.5,97.98479999999999
566.0,97.8016
566.5,97.6184
567.0,97.4352
567.5,97.252
568.0,97.0688
568.5,96.8856
569.0,96.7024
569.5,96.5192
570.0,96.336
570.5,96.3089
571.0,96.2818
571.5,96.2547
572.0,96.2276
572.5,96.2005
573.0,96.1734
573.5,96.1463
574.0,96.11919999999999
574.5,96.0921
575.0,96.065
575.5,96.0378
576.0,96.0106
576.5,95.98339999999999
577.0,95.9562
577.5,95.929
578.0,95.9018
578.5,95.87459999999999
579.0,95.8474
579.5,95.8202
580.0,95.79299999999999
580.5,95.4379
581.0,95.08279999999999
581.5,94.7277
582.0,94.37259999999999
582.5,94.0175
583.0,93.6624
583.5,93.3073
584.0,92.9522
584.5,92.5971
585.0,92.242
585.5,91.887
586.0,91.53200000000001
586.5,91.177
587.0,90.822
587.5,90.46700000000001
588.0,90.11200000000001
588.5,89.757
589.0,89.402
589.5,89.04700000000001
590.0,88.69200000000001
590.5,88.7582
591.0,88.82440000000001
591.5,88.8906
592.0,88.9568
592.5,89.023
593.0,89.0892
593.5,89.1554
594.0,89.2216
594.5,89.2878
595.0,89.354
595.5,89.4202
596.0,89.4864
596.5,89.5526
597.0,89.61880000000001
597.5,89.685
598.0,89.7512
598.5,89.8174
599.0,89.8836
599.5,89.94980000000001
600.0,90.016
600.5,89.9958
601.0,89.9756
601.5,89.9554
602.0,89.9352
602.5,89.91499999999999
603.0,89.8948
603.5,89.8746
604.0,89.8544
604.5,89.8342
605.0,89.814
605.5,89.79379999999999
606.0,89.7736
606.5,89.7534
607.0,89.7332
607.5,89.713
608.0,89.6928
608.5,89.6726
609.0,89.6524
609.5,89.63220000000001
610.0,89.61200000000001
610.5,89.51700000000001
611.0,89.42200000000001
611.5,89.32700000000001
612.0,89.23200000000001
612.5,89.137
613.0,89.042
613.5,88.947
614.0,88.852
614.5,88.757
615.0,88.662
615.5,88.56710000000001
616.0,88.4722
616.5,88.3773
617.0,88.2824
617.5,88.1875
618.0,88.0926
618.5,87.9977
619.0,87.9028
619.5,87.80789999999999
620.0,87.713
620.5,87.4926
621.0,87.2722
621.5,87.0518
622.0,86.8314
622.5,86.61099999999999
623.0,86.39059999999999
623.5,86.1702
624.0,85.9498
624.5,85.7294
625.0,85.509
625.5,85.2886
626.0,85.0682
626.5,84.8478
627.0,84.62740000000001
627.5,84.40700000000001
628.0,84.1866
628.5,83.9662
629.0,83.7458
629.5,83.5254
630.0,83.305
630.5,83.32570000000001
631.0,83.3464
631.5,83.36710000000001
632.0,83.3878
632.5,83.4085
633.0,83.42920000000001
633.5,83.4499
634.0,83.4706
634.5,83.4913
635.0,83.512
635.5,83.5326
636.0,83.5532
636.5,83.57379999999999
637.0,83.5944
637.5,83.615
638.0,83.6356
638.5,83.6562
639.0,83.67679999999999
639.5,83.69739999999999
640.0,83.71799999999999
640.5,83.53439999999999
641.0,83.35079999999999
641.5,83.1672
642.0,82.9836
642.5,82.8
643.0,82.6164
643.5,82.4328
644.0,82.2492
644.5,82.0656
645.0,81.882
645.5,81.6984
646.0,81.51480000000001
646.5,81.33120000000001
647.0,81.14760000000001
647.5,80.964
648.0,80.7804
648.5,80.5968
649.0,80.4132
649.5,80.2296
650.0,80.046
650.5,80.05550000000001
651.0,80.06500000000001
651.5,80.0745
652.0,80.084
652.5,80.0935
653.0,80.10300000000001
653.5,80.11250000000001
654.0,80.122
654.5,80.1315
655.0,80.141
655.5,80.1506
656.0,80.1602
656.5,80.16980000000001
657.0,80.1794
657.5,80.189
658.0,80.1986
658.5,80.2082
659.0,80.2178
659.5,80.22739999999999
660.0,80.237
660.5,80.3403
661.0,80.44359999999999
661.5,80.5469
662.0,80.6502
662.5,80.7535
663.0,80.85679999999999
663.5,80.9601
664.0,81.0634
664.5,81.16669999999999
665.0,81.27
665.5,81.3733
666.0,81.47659999999999
666.5,81.5799
667.0,81.6832
667.5,81.78649999999999
668.0,81.8898
668.5,81.9931
669.0,82.0964
669.5,82.19969999999999
670.0,82.303
670.5,82.10329999999999
671.0,81.9036
671.5,81.7039
672.0,81.5042
672.5,81.30449999999999
673.0,81.1048
673.5,80.9051
674.0,80.7054
674.5,80.50569999999999
675.0,80.306
675.5,80.1063
676.0,79.9066
676.5,79.70689999999999
677.0,79.5072
677.5,79.3075
678.0,79.1078
678.5,78.90809999999999
679.0,78.7084
679.5,78.5087
680.0,78.309
680.5,77.8807
681.0,77.4524
681.5,77.0241
682.0,76.5958
682.5,76.1675
683.0,75.73920000000001
683.5,75.3109
684.0,74.88260000000001
684.5,74.4543
685.0,74.02600000000001
685.5,73.5977
686.0,73.16940000000001
686.5,72.7411
687.0,72.31280000000001
687.5,71.8845
688.0,71.4562
688.5,71.0279
689.0,70.5996
689.5,70.1713
690.0,69.743
690.5,69.83749999999999
691.0,69.932
691.5,70.0265
692.0,70.121
692.5,70.21549999999999
693.0,70.31
693.5,70.4045
694.0,70.499
694.5,70.5935
695.0,70.688
695.5,70.7825
696.0,70.877
696.5,70.9715
697.0,71.066
697.5,71.1605
698.0,71.255
698.5,71.34949999999999
699.0,71.444
699.5,71.5385
700.0,71.633
700.5,71.77
701.0,71.907
701.5,72.044
702.0,72.181
702.5,72.318
703.0,72.455
703.5,72.592
704.0,72.729
704.5,72.866
705.0,73.003
705.5,73.1399
706.0,73.2768
706.5,73.4137
707.0,73.5506
707.5,73.6875
708.0,73.8244
708.5,73.9613
709.0,74.0982
709.5,74.2351
710.0,74.372
710.5,73.7346
711.0,73.0972
711.5,72.4598
712.0,71.8224
712.5,71.185
713.0,70.5476
713.5,69.9102
714.0,69.2728
714.5,68.6354
715.0,67.998
715.5,67.3605
716.0,66.723
716.5,66.08550000000001
717.0,65.44800000000001
717.5,64.8105
718.0,64.173
718.5,63.535500000000006
719.0,62.898
719.5,62.26050000000001
720.0,61.623000000000005
720.5,62.037200000000006
721.0,62.45140000000001
721.5,62.8656
722.0,63.2798
722.5,63.694
723.0,64.1082
723.5,64.5224
724.0,64.9366
724.5,65.3508
725.0,65.765
725.5,66.1791
726.0,66.5932
726.5,67.0073
727.0,67.4214
727.5,67.8355
728.0,68.2496
728.5,68.6637
729.0,69.07780000000001
729.5,69.4919
730.0,69.906
730.5,70.1662
731.0,70.4264
731.5,70.6866
732.0,70.9468
732.5,71.207
733.0,71.4672
733.5,71.7274
734.0,71.9876
734.5,72.2478
735.0,72.508
735.5,72.76809999999999
736.0,73.0282
736.5,73.28829999999999
737.0,73.5484
737.5,73.8085
738.0,74.06859999999999
738.5,74.3287
739.0,74.58879999999999
739.5,74.8489
740.0,75.109
740.5,74.5341
741.0,73.9592
741.5,73.3843
742.0,72.8094
742.5,72.2345
743.0,71.6596
743.5,71.0847
744.0,70.5098
744.5,69.9349
745.0,69.36
745.5,68.7851
746.0,68.2102
746.5,67.6353
747.0,67.0604
747.5,66.4855
748.0,65.9106
748.5,65.3357
749.0,64.7608
749.5,64.1859
750.0,63.611000000000004
750.5,62.752100000000006
751.0,61.8932
751.5,61.0343
752.0,60.1754
752.5,59.316500000000005
753.0,58.4576
753.5,57.5987
754.0,56.7398
754.5,55.8809
755.0,55.022
755.5,54.163
756.0,53.303999999999995
756.5,52.445
757.0,51.586
757.5,50.727
758.0,49.867999999999995
758.5,49.00899999999999
759.0,48.15
759.5,47.291
760.0,46.431999999999995
760.5,47.451699999999995
761.0,48.471399999999996
761.5,49.491099999999996
762.0,50.510799999999996
762.5,51.530499999999996
763.0,52.5502
763.5,53.5699
764.0,54.5896
764.5,55.6093
765.0,56.629
765.5,57.6486
766.0,58.6682
766.5,59.687799999999996
767.0,60.7074
767.5,61.727000000000004
768.0,62.7466
768.5,63.7662
769.0,64.7858
769.5,65.8054
770.0,66.825
770.5,66.6538
771.0,66.4826
771.5,66.3114
772.0,66.14020000000001
772.5,65.969
773.0,65.7978
773.5,65.6266
774.0,65.4554
774.5,65.2842
775.0,65.113
775.5,64.9418
776.0,64.7706
776.5,64.5994
777.0,64.4282
777.5,64.257
778.0,64.0858
778.5,63.9146
779.0,63.7434
779.5,63.5722
780.0,63.401
